#Time (s),Channel 1 (V),Channel 2 (V)
-0.005118875,-0.338591037479641,-2.286604229927402
-0.005117625,-0.3369016240048786,-2.283577458633382
-0.005116374999999999,-0.3348743278351619,-2.281559611104034
-0.005115125,-0.3308197354957339,-2.277523916045343
-0.005113874999999999,-0.3271030258512566,-2.276178684359112
-0.005112625,-0.3237241989017318,-2.27348822098665
-0.005111375,-0.3216969027320169,-2.270797757614188
-0.005110125,-0.3193317238673506,-2.268107294241728
-0.005108875,-0.3149392488329673,-2.265416830869264
-0.005107624999999999,-0.3118983045783935,-2.264071599183032
-0.005106375,-0.3088573603238225,-2.260035904124341
-0.005105124999999999,-0.304802767984392,-2.25700913283032
-0.005103875,-0.3031133545096303,-2.255327593222532
-0.005102625,-0.3020997064247729,-2.254318669457859
-0.005101375,-0.2987208794752481,-2.251291898163839
-0.005100125,-0.2943284044408658,-2.248265126869819
-0.005098875,-0.2912874601862949,-2.245238355575801
-0.005097625,-0.2868949851519112,-2.24221158428178
-0.005096374999999999,-0.28419192359229,-2.239857428830875
-0.005095125,-0.281150979337719,-2.236830657536857
-0.005093874999999999,-0.2777721523881926,-2.235149117929067
-0.005092625,-0.2743933254386693,-2.231786038713491
-0.005091375,-0.2703387330992396,-2.227077727811682
-0.005090125,-0.2689872023194302,-2.22606880404701
-0.005088875,-0.2652704926749523,-2.22304203275299
-0.005087625,-0.2605401349456198,-2.219678953537414
-0.005086375,-0.2588507214708552,-2.218333721851181
-0.005085124999999999,-0.2551340118263766,-2.214298026792488
-0.005083875,-0.252430950266758,-2.212280179263142
-0.005082624999999999,-0.2477005925374233,-2.208917100047564
-0.005081375,-0.2446596482828509,-2.204545097067314
-0.005080125,-0.2402671732484687,-2.202527249537968
-0.005078875,-0.2368883462989454,-2.20084570993018
-0.005077625,-0.2338474020443715,-2.197482630714601
-0.005076375,-0.2297928097049435,-2.193446935655911
-0.005075125,-0.2270897481453218,-2.190756472283447
-0.005073874999999999,-0.2230351558058907,-2.187729700989426
-0.005072625,-0.2199942115513197,-2.18436662177385
-0.005071374999999999,-0.2169532672967474,-2.182685082166061
-0.005070125,-0.2128986749573176,-2.178985695028926
-0.005068875,-0.2095198480077928,-2.175622615813349
-0.005067625,-0.2047894902784602,-2.17259584451933
-0.005066375,-0.2017485460238857,-2.169232765303752
-0.005065124999999999,-0.1980318363794065,-2.166542301931288
-0.005063875,-0.1939772440399786,-2.162842914794155
-0.005062624999999999,-0.1909362997854053,-2.159816143500134
-0.005061375,-0.1889090036156914,-2.158134603892346
-0.005060125,-0.1848544112762616,-2.155780448441442
-0.005058875,-0.1807998189368318,-2.151744753382749
-0.005057625,-0.1770831092923545,-2.149390597931845
-0.005056375,-0.1716769861731172,-2.144009671186924
-0.005055125,-0.1699875726983523,-2.140982899892902
-0.005053874999999999,-0.1679602765286348,-2.139637668206669
-0.005052625,-0.1622162707144452,-2.135601973147978
-0.005051374999999999,-0.1581616783750138,-2.131566278089284
-0.005050125,-0.1544449687305381,-2.128875814716824
-0.005048875,-0.1500524936961559,-2.124503811736573
-0.005047625,-0.1466736667466326,-2.122485964207228
-0.005046375,-0.1436327224920587,-2.118786577070091
-0.005045125,-0.1378887166778691,-2.115759805776073
-0.005043875,-0.1348477724232942,-2.112733034482052
-0.005042624999999999,-0.1321447108636725,-2.108697339423359
-0.005041375,-0.1280901185242445,-2.106679491894013
-0.005040124999999999,-0.1247112915747197,-2.103652720599993
-0.005038875,-0.1213324646251949,-2.100289641384416
-0.005037625,-0.1155884588110027,-2.095581330482608
-0.005036375,-0.1135611626412887,-2.093563482953262
-0.005035125,-0.1098444529968105,-2.090873019580799
-0.005033875,-0.1054519779624302,-2.087509940365223
-0.005032625,-0.09970797214823603,-2.081120089855625
-0.005031374999999999,-0.09666702789366199,-2.079102242326277
-0.005030125,-0.09295031824918638,-2.076075471032259
-0.005028874999999999,-0.08923360860470908,-2.072376083895124
-0.005027625,-0.08585478165518426,-2.069685620522662
-0.005026375,-0.0831517200955644,-2.066658849228642
-0.005025125,-0.07774559697632714,-2.063632077934624
-0.005023875,-0.0736910046368949,-2.059260074954372
-0.005022624999999999,-0.07031217768736792,-2.056569611581909
-0.005021375,-0.06558181995803532,-2.05219760860166
-0.005020124999999999,-0.06254087570346174,-2.049507145229197
-0.005018875,-0.05983781414384312,-2.047489297699852
-0.005017625,-0.05578322180441334,-2.043117294719601
-0.005016375,-0.04970133329526864,-2.03874529173935
-0.005015125,-0.04699827173564879,-2.036391136288446
-0.005013875,-0.04328156209117318,-2.03302805707287
-0.005012625,-0.0392269697517417,-2.030001285778849
-0.005011374999999999,-0.0348344947173582,-2.026301898641713
-0.005010125,-0.03213143315773957,-2.023611435269252
-0.005008874999999999,-0.02672531003849832,-2.018566816445885
-0.005007625,-0.02334648308897503,-2.016212660994982
-0.005006375,-0.01929189074954524,-2.011840658014731
-0.005005125,-0.01456153302021049,-2.008813886720712
-0.005003875,-0.009493292595923257,-2.004441883740462
-0.005002625,-0.007465996426209285,-2.001751420368001
-0.005001375,-0.002735638696873611,-1.997379417387749
-0.005000124999999999,0.0006431882526527487,-1.995025261936843
-0.004998875,0.004022015202176035,-1.991662182721267
-0.004997624999999999,0.00773872484665334,-1.988971719348806
-0.004996375,0.01246908257598809,-1.984263408446997
-0.004995125,0.01551002683056043,-1.981909252996093
-0.004993875,0.02057826725484536,-1.977537250015845
-0.004992625,0.02598439037408739,-1.973837862878707
-0.004991375,0.0273359211538967,-1.971483707427804
-0.004990125,0.03071474810342214,-1.968456936133784
-0.004988874999999999,0.03578298852771074,-1.964757548996647
-0.004987625,0.03882393278228172,-1.961394469781071
-0.004986374999999999,0.04389217320656895,-1.956686158879263
-0.004985125,0.04760888285104625,-1.953995695506801
-0.004983875,0.05166347519047604,-1.94962369252655
-0.004982625,0.054704419445047,-1.947605844997205
-0.004981375,0.05977265986933561,-1.943906457860069
-0.004980124999999999,0.06416513490371879,-1.940207070722932
-0.004978875,0.06619243107343277,-1.936843991507357
-0.004977624999999999,0.07058490610781734,-1.932808296448662
-0.004976375,0.07565314653210228,-1.929445217233086
-0.004975125,0.07734256000686469,-1.927763677625298
-0.004973875,0.08241080043115193,-1.92305536672349
-0.004972625,0.08646539277058171,-1.919355979586354
-0.004971375,0.09018210241505732,-1.917338132057009
-0.004970125,0.09389881205953632,-1.913302436998315
-0.004968874999999999,0.09896705248382463,-1.908930434018064
-0.004967625,0.1013322313484909,-1.907248894410276
-0.004966374999999999,0.1053868236879224,-1.903885815194697
-0.004965125,0.109103533332398,-1.899850120136006
-0.004963875,0.1131581256718278,-1.897159656763544
-0.004962625,0.1165369526213526,-1.892787653783293
-0.004961375,0.1209294276557349,-1.890097190410831
-0.004960125,0.1243082546052582,-1.886734111195256
-0.004958875,0.128700729639642,-1.883034724058119
-0.004957624999999999,0.1317416738942166,-1.880680568607213
-0.004956375,0.1368099143185016,-1.876644873548522
-0.004955124999999999,0.1401887412680264,-1.872272870568271
-0.004953875,0.1432296855225987,-1.869582407195809
-0.004952625,0.148297925946886,-1.86655563590179
-0.004951375,0.1516767528964093,-1.862183632921541
-0.004950125,0.1533661663711732,-1.860165785392193
-0.004948875,0.1580965241005058,-1.857475322019732
-0.004947625,0.1621511164399378,-1.853439626961038
-0.004946374999999999,0.1658678260844167,-1.850076547745459
-0.004945125,0.1695845357288924,-1.847049776451441
-0.004943874999999999,0.1726254799834647,-1.844023005157422
-0.004942625,0.1780316031027044,-1.840323618020286
-0.004941375,0.1810725473572768,-1.837296846726267
-0.004940125,0.1851271396967047,-1.833933767510691
-0.004938875,0.1874923185613739,-1.83090699621667
-0.004937625,0.1912090282058495,-1.827543917001094
-0.004936375,0.1956015032402335,-1.824180837785515
-0.004935124999999999,0.199656095579665,-1.821154066491494
-0.004933875,0.2033728052241406,-1.817790987275918
-0.004932625,0.2074273975635704,-1.815100523903456
-0.004931375,0.2104683418181427,-1.811737444687879
-0.004930125,0.2131714033777626,-1.808710673393859
-0.004928875,0.2172259957171905,-1.804674978335168
-0.004927625,0.2199290572768122,-1.803329746648936
-0.004926374999999999,0.2236457669212912,-1.799630359511799
-0.004925125,0.2273624765657668,-1.795594664453108
-0.004923874999999999,0.2307413035152932,-1.79357681692376
-0.004922625,0.2341201304648165,-1.790886353551299
-0.004921375,0.2385126054991988,-1.787523274335722
-0.004920125,0.2425671978386285,-1.783823887198587
-0.004918875,0.2456081420932009,-1.779451884218336
-0.004917625,0.2486490863477718,-1.777770344610548
-0.004916375,0.2513521479073931,-1.776761420845874
-0.004915124999999999,0.2537173267720629,-1.77272572578718
-0.004913875,0.2591234498913002,-1.768353722806931
-0.004912624999999999,0.2635159249256834,-1.764990643591353
-0.004911375,0.2655432210953974,-1.762972796062007
-0.004910125,0.2679083999600647,-1.760618640611103
-0.004908875,0.2726387576893973,-1.756246637630855
-0.004907625,0.2760175846389243,-1.754228790101506
-0.004906375,0.2780448808086383,-1.752547250493718
-0.004905125,0.281423707758164,-1.748847863356582
-0.004903874999999999,0.286491948182452,-1.744812168297889
-0.004902625,0.2881813616572136,-1.743466936611659
-0.004901374999999999,0.2905465405218811,-1.741112781160755
-0.004900125,0.2946011328613108,-1.736068162337388
-0.004898875,0.2979799598108356,-1.733714006886484
-0.004897625,0.3016966694553113,-1.731696159357139
-0.004896375,0.3037239656250278,-1.729005695984676
-0.004895125,0.3064270271846465,-1.727324156376888
-0.004893875,0.3104816195240775,-1.722615845475079
-0.004892624999999999,0.3145362118635081,-1.720261690024174
-0.004891375,0.3162256253382697,-1.718580150416386
-0.004890125,0.3209559830676044,-1.714880763279251
-0.004888875,0.3226453965423668,-1.713871839514578
-0.004887625,0.3246726927120818,-1.711517684063674
-0.004886375,0.3277136369666527,-1.708490912769655
-0.004885125,0.3321061120010363,-1.705127833554077
-0.004883874999999999,0.3348091735606573,-1.702773678103171
-0.004882625,0.3371743524253236,-1.699410598887595
-0.004881374999999999,0.3398774139849444,-1.697056443436691
-0.004880125,0.3419047101546583,-1.696047519672018
-0.004878875,0.3462971851890406,-1.692348132534883
-0.004877625,0.349338129443613,-1.689657669162421
-0.004876375,0.3520411910032328,-1.686294589946844
-0.004875125,0.3557579006477085,-1.683940434495941
-0.004873875,0.35846096220733,-1.681922586966593
-0.004872624999999999,0.3611640237669506,-1.679904739437245
-0.004871375,0.3628534372417123,-1.677214276064785
-0.004870124999999999,0.364880733411429,-1.67620535230011
-0.004868875,0.3689353257508569,-1.673178581006092
-0.004867625,0.3709626219205718,-1.670824425555188
-0.004866375,0.3733278007852381,-1.669815501790515
-0.004865125,0.3753550969549541,-1.667797654261168
-0.004863875,0.3790718065994297,-1.664098267124035
-0.004862625,0.3821127508540038,-1.660398879986898
-0.004861374999999999,0.3827885162439105,-1.659726264143781
-0.004860125,0.3868431085833385,-1.657372108692878
-0.004858874999999999,0.3895461701429583,-1.655354261163532
-0.004857625,0.3908977009227683,-1.653336413634185
-0.004856375,0.3922492317025782,-1.651654874026397
-0.004855125,0.3973174721268631,-1.647955486889264
-0.004853875,0.4000205336864853,-1.6452650235168
-0.004852625,0.4006962990763899,-1.644592407673685
-0.004851375,0.4030614779410576,-1.641901944301223
-0.004850124999999999,0.4054266568057266,-1.641229328458106
-0.004848875,0.4088054837552498,-1.638538865085645
-0.004847625,0.4091433664502023,-1.637193633399414
-0.004846375,0.4135358414845846,-1.633830554183837
-0.004845125,0.414549489569442,-1.632149014576048
-0.004843875,0.4172525511290607,-1.63046747496826
-0.004842625,0.4189419646038243,-1.628113319517355
-0.004841374999999999,0.4202934953836363,-1.627440703674239
-0.004840125,0.4246859704180165,-1.624750240301778
-0.004838874999999999,0.4263753838927795,-1.623068700693989
-0.004837625,0.4277269146725888,-1.621723469007758
-0.004836375,0.4284026800624938,-1.622059776929316
-0.004835125,0.4311057416221137,-1.619033005635297
-0.004833875,0.4327951550968761,-1.617687773949066
-0.004832625,0.4365118647413517,-1.613315770968817
-0.004831375,0.4378633955211633,-1.6126431551257
-0.004830124999999999,0.4398906916908786,-1.610288999674795
-0.004828875,0.4409043397757357,-1.609952691753238
-0.004827624999999999,0.4442831667252611,-1.607598536302333
-0.004826375,0.4456346975050704,-1.607262228380776
-0.004825125,0.4486756417596428,-1.604571765008314
-0.004823875,0.4483377590646904,-1.602890225400526
-0.004822625,0.4496892898445002,-1.602890225400525
-0.004821375,0.4523923514041188,-1.60087237787118
-0.004820125,0.453068116794025,-1.599863454106506
-0.004818874999999999,0.4567848264385028,-1.596836682812485
-0.004817625,0.4577984745233598,-1.595491451126255
-0.004816374999999999,0.4584742399132647,-1.593809911518466
-0.004815125,0.4608394187779321,-1.593473603596909
-0.004813875,0.462190949557742,-1.59179206398912
-0.004812625,0.4635424803375514,-1.591119448146005
-0.004811375,0.4648940111173619,-1.589437908538216
-0.004810125,0.4652318938123142,-1.588428984773543
-0.004808875,0.4679349553719342,-1.587420061008869
-0.004807624999999999,0.4689486034567927,-1.586074829322638
-0.004806375,0.471313782321459,-1.584056981793292
-0.004805125,0.4706380169315541,-1.58439328971485
-0.004803875,0.4723274304063165,-1.582375442185503
-0.004802625,0.4750304919659364,-1.581030210499272
-0.004801375,0.4760441400507934,-1.5800212867346
-0.004800125,0.4773956708306037,-1.579012362969926
-0.004798874999999999,0.4780714362205095,-1.579012362969925
-0.004797625,0.4797608496952711,-1.577667131283695
-0.004796374999999999,0.4790850843053672,-1.578003439205252
-0.004795125,0.4814502631700335,-1.575985591675906
-0.004793875,0.4838154420347009,-1.57396774414656
-0.004792625,0.4848290901195583,-1.572286204538771
-0.004791375,0.4861806208993683,-1.571949896617214
-0.004790125,0.4868563862892729,-1.570604664930983
-0.004788875,0.4865185035943208,-1.571613588695656
-0.004787624999999999,0.4875321516791791,-1.571277280774097
-0.004786375,0.4895594478488931,-1.569259433244752
-0.004785124999999999,0.4878700343741317,-1.569259433244751
-0.004783875,0.4902352132387981,-1.567914201558521
-0.004782625,0.4919246267135605,-1.567577893636963
-0.004781375,0.4936140401883221,-1.565896354029175
-0.004780125,0.492938274798418,-1.565896354029174
-0.004778875,0.4939519228832749,-1.565223738186059
-0.004777625,0.4936140401883229,-1.564887430264501
-0.004776374999999999,0.4953034536630851,-1.563878506499829
-0.004775125,0.4949655709681328,-1.565223738186059
-0.004773874999999999,0.4956413363580378,-1.564887430264501
-0.004772625,0.4969928671378477,-1.56354219857827
-0.004771375,0.4969928671378477,-1.562533274813597
-0.004770125,0.4966549844428954,-1.562869582735154
-0.004768875,0.4976686325277527,-1.562196966892039
-0.004767625,0.499020163307562,-1.561188043127367
-0.004766375,0.50003381139242,-1.561524351048924
-0.004765124999999999,0.5000338113924203,-1.56051542728425
-0.004763875,0.500709576782325,-1.559842811441135
-0.004762624999999999,0.50138534217223,-1.560179119362693
-0.004761375,0.5003716940873725,-1.560179119362693
-0.004760125,0.5003716940873725,-1.560851735205808
-0.004758875,0.5003716940873725,-1.560179119362693
-0.004757625,0.5017232248671825,-1.560179119362693
-0.004756374999999999,0.5013853421722303,-1.560179119362692
-0.004755125,0.5020611075621348,-1.558833887676462
-0.004753874999999999,0.5017232248671829,-1.559506503519577
-0.004752625,0.5027368729520398,-1.559506503519577
-0.004751375,0.5023989902570873,-1.55917019559802
-0.004750125,0.500709576782325,-1.560515427284251
-0.004748875,0.50003381139242,-1.560851735205808
-0.004747625,0.5007095767823246,-1.561188043127366
-0.004746375,0.5023989902570873,-1.560179119362693
-0.004745124999999999,0.5034126383419442,-1.559842811441135
-0.004743875,0.5020611075621348,-1.55917019559802
-0.004742624999999999,0.5013853421722295,-1.560179119362693
-0.004741375,0.5003716940873725,-1.561524351048924
-0.004740125,0.5010474594772775,-1.561860658970482
-0.004738875,0.5000338113924204,-1.561860658970482
-0.004737625,0.4996959286974676,-1.561860658970482
-0.004736375,0.5003716940873721,-1.561524351048924
-0.004735125,0.4996959286974676,-1.562533274813597
-0.004733874999999999,0.4993580460025154,-1.562869582735155
-0.004732625,0.50003381139242,-1.564214814421386
-0.004731374999999999,0.4986822806126101,-1.564551122342943
-0.004730125,0.4980065152227052,-1.563205890656712
-0.004728875,0.4976686325277527,-1.563878506499828
-0.004727625,0.4966549844428957,-1.565560046107616
-0.004726375,0.4959792190529903,-1.567241585715405
-0.004725125,0.4959792190529903,-1.567241585715405
-0.004723875,0.4973307498328002,-1.565896354029174
-0.004722624999999999,0.4932761574933712,-1.568586817401636
-0.004721375,0.4949655709681328,-1.567914201558521
-0.004720124999999999,0.4939519228832754,-1.569259433244752
-0.004718875,0.4939519228832754,-1.569932049087867
-0.004717625,0.4926003921034655,-1.569595741166309
-0.004716375,0.4919246267135608,-1.57094097285254
-0.004715125,0.4898973305438456,-1.571277280774098
-0.004713874999999999,0.4898973305438448,-1.572958820381887
-0.004712625,0.4882079170690832,-1.573631436225002
-0.004711374999999999,0.4871942689842256,-1.575649283754349
-0.004710125,0.4868563862892732,-1.576658207519022
-0.004708875,0.4861806208993683,-1.576658207519022
-0.004707625,0.4844912074246059,-1.578003439205253
-0.004706375,0.482463911254891,-1.579348670891484
-0.004705125,0.482463911254891,-1.580357594656157
-0.004703875,0.4814502631700335,-1.581702826342388
-0.004702624999999999,0.4811123804750796,-1.581366518420831
-0.004701375,0.4780714362205087,-1.582711750107061
-0.004700124999999999,0.4787472016104126,-1.583384365950178
-0.004698875,0.4763820227457463,-1.586074829322639
-0.004697625,0.4757062573558413,-1.586747445165754
-0.004696375,0.4757062573558413,-1.586747445165754
-0.004695125,0.472665313101269,-1.589437908538216
-0.004693875,0.4713137823214597,-1.589774216459773
-0.004692625,0.471313782321459,-1.590783140224447
-0.004691374999999999,0.4699622515416479,-1.593137295675352
-0.004690125,0.4672591899820293,-1.59481883528314
-0.004688874999999999,0.4648940111173619,-1.595827759047813
-0.004687625,0.4638803630325045,-1.596836682812486
-0.004686375,0.462866714947647,-1.598518222420275
-0.004685125,0.46185306686279,-1.599863454106505
-0.004683875,0.4581363572183123,-1.601544993714294
-0.004682625,0.4584742399132646,-1.603226533322082
-0.004681375,0.4561090610485973,-1.604571765008314
-0.004680124999999999,0.4550954129637397,-1.606253304616103
-0.004678875,0.4547575302687874,-1.606925920459218
-0.004677624999999999,0.45239235140412,-1.608943767988565
-0.004676375,0.4510408206243101,-1.610288999674796
-0.004675125,0.4466483455899278,-1.613315770968815
-0.004673875,0.4456346975050708,-1.614661002655045
-0.004672625,0.443945284030308,-1.616006234341277
-0.004671374999999999,0.4429316359454501,-1.618360389792181
-0.004670125,0.4419179878605931,-1.618360389792181
-0.004668874999999999,0.4392149263009726,-1.620378237321528
-0.004667625,0.4378633955211633,-1.622396084850874
-0.004666375,0.435498216656496,-1.62441393238022
-0.004665125,0.433470920486781,-1.628113319517355
-0.004663875,0.4304299762322087,-1.629122243282028
-0.004662625,0.4297542108423041,-1.629458551203586
-0.004661375,0.4260375011978264,-1.631140090811375
-0.004660124999999999,0.4256996185028727,-1.633830554183838
-0.004658875,0.4229965569432541,-1.635512093791626
-0.004657624999999999,0.4213071434684905,-1.637193633399415
-0.004656375,0.4186040819088718,-1.639884096771876
-0.004655125,0.415901020349252,-1.642574560144338
-0.004653875,0.414549489569442,-1.643247175987454
-0.004652625,0.4118464280098222,-1.645937639359915
-0.004651375,0.4098191318401082,-1.648291794810818
