#Time (s),Channel 1 (V),Channel 2 (V)
-0.005119196428571429,-0.3416319817342133,-2.174277384127118
-0.005117946428571428,-0.3369016240048786,-2.171586920754656
-0.005116696428571428,-0.3335227970553531,-2.169232765303752
-0.005115446428571428,-0.3321712662755438,-2.168223841539079
-0.005114196428571428,-0.328116673936114,-2.165869686088175
-0.005112946428571429,-0.3264272604613516,-2.164188146480386
-0.005111696428571428,-0.3230484335118268,-2.163179222715713
-0.005110446428571429,-0.3203453719522082,-2.160488759343252
-0.005109196428571428,-0.3166286623077296,-2.158134603892346
-0.005107946428571428,-0.3135877180531563,-2.156453064284557
-0.005106696428571428,-0.3112225391884899,-2.154098908833654
-0.005105446428571428,-0.3071679468490593,-2.151744753382749
-0.005104196428571428,-0.3054785333742978,-2.150063213774961
-0.005102946428571428,-0.3004102929500105,-2.147709058324057
-0.005101696428571429,-0.2977072313903906,-2.146027518716268
-0.005100446428571428,-0.2973693486954382,-2.144682287030037
-0.005099196428571429,-0.2926389909661056,-2.142664439500692
-0.005097946428571428,-0.2882465159317211,-2.138965052363555
-0.005096696428571428,-0.2852055716771474,-2.137619820677324
-0.005095446428571428,-0.2821646274225765,-2.136610896912651
-0.005094196428571428,-0.2791236831680031,-2.133920433540189
-0.005092946428571428,-0.2767585043033368,-2.132238893932401
-0.005091696428571428,-0.2730417946588594,-2.129548430559939
-0.005090446428571429,-0.2689872023194315,-2.127530583030594
-0.005089196428571428,-0.2659462580648573,-2.125176427579688
-0.005087946428571429,-0.264594727285048,-2.124167503815016
-0.005086696428571428,-0.2598643695557126,-2.120804424599438
-0.005085446428571428,-0.2564855426061859,-2.117777653305418
-0.005084196428571428,-0.252430950266758,-2.115423497854514
-0.005082946428571428,-0.2477005925374233,-2.113741958246726
-0.005081696428571428,-0.2453354136727559,-2.111724110717379
-0.005080446428571428,-0.242632352113136,-2.109369955266475
-0.005079196428571429,-0.2389156424686604,-2.107688415658687
-0.005077946428571428,-0.2348610501292289,-2.106006876050897
-0.005076696428571429,-0.2341852847393243,-2.104661644364667
-0.005075446428571428,-0.2291170443150367,-2.100962257227532
-0.005074196428571428,-0.2257382173655102,-2.098271793855069
-0.005072946428571428,-0.2220215077210346,-2.096926562168839
-0.005071696428571428,-0.2166153846017949,-2.093563482953261
-0.005070446428571429,-0.2135744403472226,-2.091881943345473
-0.005069196428571428,-0.2101956133976977,-2.090200403737684
-0.005067946428571429,-0.2071546691431268,-2.087846248286781
-0.005066696428571428,-0.204789490278458,-2.086501016600549
-0.005065446428571428,-0.2000591325491217,-2.082801629463412
-0.005064196428571428,-0.1966803055995984,-2.079774858169394
-0.005062946428571428,-0.1905984170904528,-2.077420702718489
-0.005061696428571428,-0.1885711209207389,-2.075739163110701
-0.005060446428571428,-0.1862059420560715,-2.075066547267586
-0.005059196428571429,-0.1814755843267367,-2.070694544287335
-0.005057946428571428,-0.1791104054620694,-2.07002192844422
-0.005056696428571429,-0.1740421650377844,-2.066658849228644
-0.005055446428571428,-0.1720148688680672,-2.064977309620854
-0.005054196428571428,-0.1686360419185407,-2.062959462091507
-0.005052946428571428,-0.1649193322740651,-2.060605306640603
-0.005051696428571428,-0.1608647399346332,-2.057578535346582
-0.005050446428571428,-0.1561343822053006,-2.054551764052564
-0.005049196428571428,-0.1517419071709183,-2.052870224444775
-0.005047946428571429,-0.1500524936961567,-2.051861300680103
-0.005046696428571428,-0.1449842532718686,-2.048834529386082
-0.005045446428571429,-0.1409296609324407,-2.045807758092064
-0.005044196428571428,-0.1378887166778665,-2.043453602641159
-0.005042946428571428,-0.1334962416434826,-2.040426831347138
-0.005041696428571428,-0.1297795319990069,-2.038408983817793
-0.005040446428571428,-0.1260628223545296,-2.036054828366888
-0.005039196428571428,-0.1220082300150999,-2.033028057072869
-0.005037946428571428,-0.1179536376756701,-2.03134651746508
-0.005036696428571429,-0.1145748107261468,-2.029664977857292
-0.005035446428571428,-0.1111959837766204,-2.02697451448483
-0.005034196428571429,-0.1061277433523355,-2.023947743190811
-0.005032946428571428,-0.1027489164028084,-2.022602511504579
-0.005031696428571428,-0.09903220675832983,-2.018566816445886
-0.005030446428571428,-0.09632914519871121,-2.017557892681213
-0.005029196428571428,-0.09227455285928142,-2.014867429308751
-0.005027946428571428,-0.08788207782489915,-2.012849581779405
-0.005026696428571428,-0.08450325087537433,-2.010159118406943
-0.005025446428571429,-0.08078654123089872,-2.008813886720712
-0.005024196428571428,-0.07605618350156228,-2.00612342334825
-0.005022946428571428,-0.07031217768736915,-2.002087728289556
-0.005021696428571428,-0.06828488151765517,-2.000406188681769
-0.005020446428571428,-0.06423028917822354,-1.997715725309306
-0.005019196428571428,-0.0601756968387956,-1.995361569858403
-0.005017946428571428,-0.05713475258422326,-1.993343722329056
-0.005016696428571429,-0.05308016024479348,-1.990989566878152
-0.005015446428571428,-0.04970133329526864,-1.98829910350569
-0.005014196428571429,-0.04463309287098371,-1.98560864013323
-0.005012946428571428,-0.04125426592145659,-1.983590792603882
-0.005011696428571428,-0.03652390819212031,-1.981236637152976
-0.005010446428571428,-0.03314508124259702,-1.978209865858958
-0.005009196428571428,-0.03111778507287905,-1.976528326251168
-0.005007946428571428,-0.02436013117383248,-1.97350155495715
-0.005006696428571428,-0.01996765613945021,-1.970138475741572
-0.005005446428571429,-0.0162509464949729,-1.968456936133784
-0.005004196428571428,-0.0125342368504956,-1.966102780682879
-0.005002946428571429,-0.009155409900972312,-1.964757548996649
-0.005001696428571428,-0.006114465646398433,-1.961394469781071
-0.005000446428571428,-0.002397756001919131,-1.960385546016397
-0.004999196428571428,0.001994719032461141,-1.957695082643936
-0.004997946428571428,0.008076607541605822,-1.954668311349917
-0.004996696428571428,0.0104417864062732,-1.951977847977455
-0.004995446428571428,0.01483426144065547,-1.949287384604993
-0.004994196428571429,0.01821308839017876,-1.94693322915409
-0.004992946428571428,0.02159191533970511,-1.9452516895463
-0.004991696428571429,0.02598439037408539,-1.942561226173839
-0.004990446428571428,0.02936321732361221,-1.941215994487607
-0.004989196428571428,0.03307992696809089,-1.939534454879817
-0.004987946428571428,0.03612087122266186,-1.936843991507357
-0.004986696428571428,0.04118911164694909,-1.933817220213337
-0.004985446428571428,0.04456793859647391,-1.931799372683991
-0.004984196428571428,0.04929829632580866,-1.929108909311529
-0.004982946428571429,0.05436653675009359,-1.925745830095953
-0.004981696428571428,0.05774536369962072,-1.924064290488163
-0.004980446428571428,0.06078630795419536,-1.921710135037257
-0.004979196428571428,0.06585454837848029,-1.919019671664797
-0.004977946428571428,0.06855760993810169,-1.916329208292334
-0.004976696428571428,0.07193643688762497,-1.914647668684546
-0.004975446428571428,0.07666679461695973,-1.912293513233642
-0.004974196428571429,0.07936985617657959,-1.910611973625853
-0.004972946428571428,0.08545174468572427,-1.906912586488718
-0.004971696428571429,0.09119575049991385,-1.9038858151947
-0.004970446428571428,0.09322304666963135,-1.902876891430025
-0.004969196428571428,0.09525034283934794,-1.900859043900678
-0.004967946428571428,0.09896705248382355,-1.898841196371333
-0.004966696428571428,0.1026837621283036,-1.896150732998869
-0.004965446428571428,0.1087656506374455,-1.893123961704851
-0.004964196428571428,0.1107929468071604,-1.891442422097062
-0.004962946428571429,0.1158611872314477,-1.888415650803043
-0.004961696428571428,0.118226366096115,-1.888079342881485
-0.004960446428571429,0.1229567238254476,-1.884379955744352
-0.004959196428571428,0.1266734334699271,-1.882025800293446
-0.004957946428571428,0.1297143777245019,-1.880007952764099
-0.004956696428571428,0.1351205008437392,-1.878999028999426
-0.004955446428571428,0.139175093183169,-1.875972257705407
-0.004954196428571428,0.1425539201326938,-1.873618102254502
-0.004952946428571428,0.1452569816923137,-1.872609178489829
-0.004951696428571429,0.1493115740317416,-1.869582407195811
-0.004950446428571428,0.1530282836762207,-1.867564559666463
-0.004949196428571429,0.1580965241005057,-1.864201480450887
-0.004947946428571428,0.1607995856601278,-1.862183632921539
-0.004946696428571428,0.1635026472197491,-1.861511017078423
-0.004945446428571428,0.16654359147432,-1.85915686162752
-0.004944196428571428,0.1739770107632747,-1.854784858647269
-0.004942946428571428,0.1753285415430846,-1.853439626961038
-0.004941696428571428,0.1800588992724193,-1.85175808735325
-0.004940446428571429,0.1837756089168949,-1.849740239823904
-0.004939196428571428,0.186140787781564,-1.848058700216114
-0.004937946428571429,0.1885059666462303,-1.845704544765211
-0.004936696428571428,0.1949257378503285,-1.842341465549633
-0.004935446428571428,0.1976287994099499,-1.841332541784959
-0.004934196428571428,0.2010076263594732,-1.839314694255613
-0.004932946428571428,0.2030349225291881,-1.837296846726267
-0.004931696428571429,0.2081031629534754,-1.834606383353805
-0.004930446428571428,0.2104683418181427,-1.832924843746016
-0.004929196428571429,0.214860816852523,-1.830570688295113
-0.004927946428571428,0.2189154091919548,-1.829561764530439
-0.004926696428571428,0.2246594150061473,-1.826534993236419
-0.004925446428571428,0.2253351803960519,-1.825189761550188
-0.004924196428571428,0.2297276554304351,-1.822162990256168
-0.004922946428571428,0.2317549516001491,-1.821154066491496
-0.004921696428571428,0.2358095439395789,-1.818799911040591
-0.004920446428571429,0.2388504881941513,-1.81745467935436
-0.004919196428571428,0.2432429632285335,-1.814427908060341
-0.004917946428571429,0.2476354382629138,-1.81173744468788
-0.004916696428571428,0.2513521479073931,-1.81005590508009
-0.004915446428571428,0.2537173267720623,-1.809046981315416
-0.004914196428571428,0.2577719191114902,-1.807365441707628
-0.004912946428571428,0.2608128633660634,-1.805347594178282
-0.004911696428571428,0.262502276840825,-1.805011286256724
-0.004910446428571428,0.2668947518752073,-1.800639283276474
-0.004909196428571429,0.2709493442146352,-1.799294051590243
-0.004907946428571428,0.2743281711641619,-1.796939896139339
-0.004906696428571429,0.2770312327237805,-1.795930972374666
-0.004905446428571428,0.2800721769783541,-1.794249432766877
-0.004904196428571428,0.2837888866228327,-1.791222661472857
-0.004902946428571428,0.2868298308774037,-1.790213737708184
-0.004901696428571428,0.2902086578269286,-1.789204813943511
-0.004900446428571428,0.2922359539966434,-1.787523274335722
-0.004899196428571428,0.2966284290310257,-1.785169118884818
-0.004897946428571429,0.2973041944209304,-1.782814963433915
-0.004896696428571428,0.3013587867603605,-1.782478655512356
-0.004895446428571429,0.3057512617947407,-1.77911557629678
-0.004894196428571428,0.3098058541341725,-1.776761420845874
-0.004892946428571428,0.3121710329988416,-1.776088805002757
-0.004891696428571428,0.3158877426433172,-1.772725725787182
-0.004890446428571428,0.3169013907281746,-1.773734649551855
-0.004889196428571429,0.3202802176776995,-1.772053109944066
-0.004887946428571428,0.3243348100171293,-1.770371570336277
-0.004886696428571429,0.3260242234918909,-1.769362646571605
-0.004885446428571428,0.3310924639161789,-1.765999567356027
-0.004884196428571428,0.3341334081707516,-1.763645411905123
-0.004882946428571428,0.3348091735606562,-1.762972796062007
-0.004881696428571428,0.3375122351202779,-1.762300180218891
-0.004880446428571428,0.3415668274597058,-1.760282332689545
-0.004879196428571428,0.3446077717142782,-1.758600793081757
-0.004877946428571429,0.347986598663803,-1.75658294555241
-0.004876696428571428,0.3503517775284704,-1.755574021787737
-0.004875446428571429,0.3537306044779936,-1.753892482179949
-0.004874196428571428,0.3547442525628527,-1.753556174258391
-0.004872946428571428,0.3584609622073316,-1.751874634650601
-0.004871696428571428,0.3621776718518073,-1.749856787121256
-0.004870446428571428,0.3638670853265709,-1.748175247513466
-0.004869196428571428,0.3665701468861896,-1.746830015827236
-0.004867946428571428,0.3685974430559044,-1.746157399984121
-0.004866696428571429,0.3709626219205708,-1.744139552454775
-0.004865446428571428,0.3743414488700966,-1.742794320768543
-0.004864196428571429,0.3783960412095246,-1.740103857396083
-0.004862946428571428,0.3794096892943839,-1.739431241552966
-0.004861696428571428,0.3827885162439099,-1.737749701945177
-0.004860446428571428,0.3854915778035286,-1.737077086102062
-0.004859196428571428,0.3868431085833385,-1.736404470258946
-0.004857946428571428,0.3905598182278158,-1.734722930651158
-0.004856696428571428,0.3929249970924832,-1.733714006886484
-0.004855446428571429,0.3966417067369588,-1.732032467278696
-0.004854196428571428,0.396303824042008,-1.730687235592465
-0.004852946428571429,0.4000205336864836,-1.728669388063119
-0.004851696428571428,0.4020478298562002,-1.729342003906234
-0.004850446428571428,0.405426656805726,-1.726987848455329
-0.004849196428571428,0.4074539529754399,-1.725978924690657
-0.004847946428571428,0.4098191318401073,-1.724970000925983
-0.004846696428571429,0.4108327799249648,-1.72396107716131
-0.004845446428571428,0.4128600760946796,-1.723288461318194
-0.004844196428571429,0.4152252549593459,-1.721943229631964
-0.004842946428571428,0.4179283165189668,-1.721606921710406
-0.004841696428571428,0.4199556126886831,-1.719252766259501
-0.004840446428571428,0.4229965569432541,-1.717234918730155
-0.004839196428571428,0.4236723223331603,-1.717234918730155
-0.004837946428571428,0.4263753838927789,-1.717234918730155
-0.004836696428571428,0.4280647973675413,-1.715217071200809
-0.004835446428571429,0.4300920935372562,-1.714208147436136
-0.004834196428571428,0.4338088031817335,-1.713871839514578
-0.004832946428571429,0.4344845685716381,-1.712862915749905
-0.004831696428571428,0.4351603339615435,-1.712190299906789
-0.004830446428571428,0.4385391609110693,-1.710508760299
-0.004829196428571428,0.4409043397757357,-1.70916352861277
-0.004827946428571428,0.4419179878605937,-1.709499836534327
-0.004826696428571428,0.443269518640403,-1.70916352861277
-0.004825446428571428,0.4473241109798328,-1.707145681083423
-0.004824196428571429,0.4479998763697374,-1.706809373161866
-0.004822946428571428,0.4493514071495477,-1.705800449397192
-0.004821696428571429,0.4513787033192617,-1.705464141475635
-0.004820446428571428,0.453068116794025,-1.705127833554077
-0.004819196428571428,0.4554332956586932,-1.703782601867845
-0.004817946428571428,0.4571227091334548,-1.702101062260057
-0.004816696428571428,0.4571227091334548,-1.702437370181615
-0.004815446428571428,0.4591500053031697,-1.702101062260057
-0.004814196428571428,0.4601636533880271,-1.700755830573826
-0.004812946428571429,0.4618530668627888,-1.701092138495384
-0.004811696428571428,0.462190949557742,-1.700419522652268
-0.004810446428571429,0.4655697765072653,-1.698065367201365
-0.004809196428571428,0.4682728380668867,-1.697392751358249
-0.004807946428571428,0.4692864861517436,-1.697056443436691
-0.004806696428571428,0.4679349553719342,-1.697729059279807
-0.004805446428571428,0.4709758996265066,-1.696047519672018
-0.004804196428571429,0.471989547711364,-1.697392751358249
-0.004802946428571428,0.4743547265760314,-1.695374903828903
-0.004801696428571429,0.4757062573558407,-1.694702287985787
-0.004800446428571428,0.4750304919659364,-1.694702287985787
-0.004799196428571428,0.4770577881356525,-1.694702287985787
-0.004797946428571428,0.4797608496952711,-1.694029672142672
-0.004796696428571428,0.4817881458649856,-1.692348132534883
-0.004795446428571428,0.4807744977801285,-1.692348132534883
-0.004794196428571428,0.481112380475081,-1.693020748377998
-0.004792946428571429,0.4828017939498435,-1.693693364221114
-0.004791696428571428,0.4838154420347009,-1.69133920877021
-0.004790446428571429,0.4858427382044149,-1.691002900848652
-0.004789196428571428,0.4871942689842257,-1.69133920877021
-0.004787946428571428,0.4871942689842261,-1.691002900848652
-0.004786696428571428,0.4878700343741307,-1.690666592927094
-0.004785446428571428,0.4892215651539404,-1.691339208770209
-0.004784196428571428,0.4888836824589881,-1.689657669162421
-0.004782946428571428,0.4902352132387981,-1.689993977083979
-0.004781696428571429,0.4912488613236551,-1.690330285005536
-0.004780446428571428,0.4919246267135605,-1.688985053319306
-0.004779196428571429,0.4926003921034651,-1.689321361240863
-0.004777946428571428,0.4936140401883229,-1.689321361240863
-0.004776696428571428,0.4946276882731811,-1.689993977083978
-0.004775446428571428,0.4963171017479427,-1.688985053319306
-0.004774196428571428,0.4949655709681328,-1.691002900848652
-0.004772946428571428,0.4949655709681328,-1.690330285005536
-0.004771696428571428,0.4973307498328002,-1.689321361240863
-0.004770446428571429,0.4963171017479432,-1.689657669162421
-0.004769196428571428,0.4976686325277527,-1.689657669162421
-0.004767946428571429,0.4976686325277527,-1.690330285005536
-0.004766696428571428,0.4983443979176577,-1.689321361240863
-0.004765446428571428,0.4996959286974673,-1.689657669162421
-0.004764196428571428,0.4990201633075626,-1.689993977083979
-0.004762946428571428,0.4986822806126101,-1.690666592927094
-0.004761696428571429,0.50003381139242,-1.690330285005536
-0.004760446428571428,0.50003381139242,-1.689993977083979
-0.004759196428571429,0.4993580460025154,-1.691002900848652
-0.004757946428571428,0.5017232248671825,-1.689993977083979
-0.004756696428571428,0.5007095767823246,-1.690330285005537
-0.004755446428571428,0.50003381139242,-1.691675516691767
-0.004754196428571428,0.5010474594772775,-1.69133920877021
-0.004752946428571428,0.5010474594772775,-1.692011824613325
-0.004751696428571428,0.5030747556469923,-1.691002900848652
-0.004750446428571429,0.50138534217223,-1.691675516691767
-0.004749196428571428,0.500709576782325,-1.692348132534883
-0.004747946428571429,0.5020611075621342,-1.69268444045644
-0.004746696428571428,0.500709576782325,-1.693357056299556
-0.004745446428571428,0.5013853421722293,-1.694029672142671
-0.004744196428571428,0.50003381139242,-1.693693364221114
-0.004742946428571428,0.5020611075621344,-1.693357056299557
-0.004741696428571428,0.5010474594772775,-1.694702287985787
-0.004740446428571428,0.4996959286974676,-1.696720135515133
-0.004739196428571429,0.5010474594772768,-1.696383827593576
-0.004737946428571428,0.500709576782325,-1.696047519672018
-0.004736696428571429,0.4990201633075634,-1.696383827593575
-0.004735446428571428,0.4986822806126101,-1.697729059279807
-0.004734196428571428,0.4990201633075624,-1.698065367201365
-0.004732946428571428,0.4986822806126101,-1.69873798304448
-0.004731696428571428,0.4969928671378477,-1.699746906809153
-0.004730446428571428,0.4969928671378477,-1.700083214730711
-0.004729196428571428,0.4973307498328002,-1.700419522652268
-0.004727946428571429,0.4969928671378479,-1.701428446416941
-0.004726696428571428,0.4973307498328002,-1.701764754338499
-0.004725446428571429,0.4953034536630863,-1.702101062260057
-0.004724196428571428,0.4949655709681328,-1.702773678103173
-0.004722946428571428,0.4946276882731802,-1.703446293946288
-0.004721696428571428,0.4942898055782279,-1.703782601867846
-0.004720446428571428,0.492262509408513,-1.707145681083423
-0.004719196428571429,0.4936140401883229,-1.706473065240308
-0.004717946428571428,0.491586744018608,-1.707145681083423
-0.004716696428571429,0.489559447848894,-1.708490912769653
-0.004715446428571428,0.490910978628703,-1.708154604848096
-0.004714196428571428,0.4905730959337496,-1.708827220691213
-0.004712946428571428,0.4885457997640357,-1.710172452377443
-0.004711696428571428,0.4885457997640346,-1.710508760299002
-0.004710446428571428,0.4861806208993683,-1.71353553159302
-0.004709196428571428,0.4844912074246059,-1.713871839514578
-0.004707946428571429,0.4844912074246059,-1.714544455357693
-0.004706696428571428,0.4834775593397484,-1.714544455357693
